Zeit [s],Aussenluft [°C],Vorlauf [°C],Ruecklauf [°C],Raum [°C],Heizung Ziel [°C],Druck [bar],Trinkwasser im Heizraum [°C],Trinkwasser Zulauf[°C]
1569888000,12.02,20.002512,20.0,20.0,28.85,1.01325,20.0,13.606
1569888302,11.965417,27.160391,26.064579,20.29523,28.55477,8.2627266,14.698559,13.589625
1569888607,11.910317,27.562791,27.422823,21.155107,27.694893,9.4455415,14.689082,13.573095
1569888980,11.842884,27.546318,27.434487,21.197305,27.652695,9.435327,14.677481,13.552865
1569889305,11.78423,27.55794,27.440358,21.178161,27.671839,9.4495405,14.667388,13.535269
1569889614,11.728546,27.571919,27.453664,21.163539,27.686461,9.4712326,14.657804,13.518564
1569890049,11.649955,27.591459,27.472548,21.143394,27.706606,9.5018533,14.644273,13.494986
1569890614,11.548016,27.616772,27.496938,21.117204,27.732796,9.5416842,14.626717,13.464405
1569890926,11.491655,27.630769,27.510427,21.102725,27.747275,9.5638143,14.617008,13.447497
1569891323,11.419891,27.648591,27.527602,21.08429,27.76571,9.5921032,14.604641,13.425967
1569891662,11.36338,27.663614,27.542216,21.069052,27.780948,9.6161725,14.594876,13.409014
1569892005,11.327216,27.675066,27.554853,21.059718,27.790282,9.6358118,14.588642,13.398165
1569892570,11.267566,27.689803,27.569291,21.04473,27.80527,9.6596272,14.578356,13.38027
1569892971,11.225218,27.700332,27.579463,21.033855,27.816145,9.6766045,14.571052,13.367565
1569893372,11.18287,27.710852,27.58959,21.022974,27.827026,9.6935863,14.563749,13.354861
1569894153,11.100472,27.731309,27.609313,21.001813,27.848187,9.7267545,14.549532,13.330142
1569895200,10.99,27.758742,27.635755,20.973437,27.876563,9.7714871,14.530464,13.297
1569895634,11.012906,27.760267,27.641113,20.977996,27.872004,9.7772777,14.534368,13.303872
1569896056,11.035213,27.754686,27.636083,20.984182,27.865818,9.7684688,14.538218,13.310564
1569896695,11.06892,27.746312,27.627977,20.992804,27.857196,9.7548781,14.544035,13.320676
1569897511,11.111996,27.735617,27.617665,21.003871,27.846129,9.7375835,14.551463,13.333599
1569898640,11.171557,27.720823,27.603413,21.019171,27.830829,9.7137505,14.561744,13.351467
1569898985,11.169205,27.717619,27.599347,21.020581,27.829419,9.7077077,14.561372,13.350761
1569899314,11.149985,27.721073,27.600727,21.014365,27.835635,9.7118279,14.558057,13.344996
1569899841,11.119273,27.728789,27.608134,21.006371,27.843629,9.7243613,14.552758,13.335782
1569900781,11.064423,27.742403,27.621248,20.992279,27.857721,9.7465543,14.543293,13.319327
1569901944,10.996547,27.759258,27.637503,20.974847,27.875153,9.7741468,14.531581,13.298964
1569902400,10.97,27.765849,27.643865,20.968031,27.881969,9.7849712,14.527001,13.291
1569902824,10.984142,27.766558,27.64672,20.970801,27.879199,9.788029,14.529407,13.295243
1569903292,10.999754,27.762607,27.643162,20.97516,27.87484,9.7817864,14.532102,13.299926
1569903961,11.022048,27.757077,27.637826,20.98087,27.86913,9.7728278,14.53595,13.306614
1569904853,11.051779,27.749687,27.630715,20.988517,27.861483,9.7608924,14.54108,13.315534
1569906000,11.09,27.740181,27.62157,20.99835,27.85165,9.7455713,14.547673,13.327
1569906851,11.080539,27.740257,27.620324,20.996239,27.853761,9.7446984,14.54606,13.324162
1569907419,11.074231,27.742197,27.622265,20.994399,27.855601,9.747993,14.544971,13.322269
1569908492,11.0623,27.745021,27.625094,20.991583,27.858417,9.7527792,14.542912,13.31869
1569909248,11.053901,27.74716,27.627035,20.989229,27.860771,9.7562588,14.541462,13.31617
1569909600,11.05,27.748168,27.627939,20.988109,27.861891,9.7578922,14.540789,13.315
1569910354,11.05,27.748654,27.628881,20.988285,27.861715,9.7591458,15.090934,13.315
1569911136,11.05,27.748603,27.628753,20.988229,27.861771,9.7590898,15.666508,13.315
1569911918,11.05,27.748636,27.628822,20.988249,27.861751,9.7592633,16.24588,13.315
1569913033,11.05,27.748615,27.628786,20.988246,27.861754,9.7593417,17.078143,13.315
1569913426,11.06446,27.747394,27.62833,20.990822,27.859178,9.7580447,17.206992,13.319338
1569913882,11.093622,27.740713,27.622952,20.999146,27.850854,9.7480407,17.212171,13.328086
1569914221,11.115271,27.735296,27.617633,21.004642,27.845358,9.7392103,17.215946,13.334581
1569914560,11.13692,27.729928,27.612487,21.010212,27.839788,9.7305574,17.219862,13.341076
1569915101,11.171479,27.721349,27.604208,21.019086,27.830914,9.7167155,17.225933,13.351444
1569916012,11.229719,27.706882,27.590276,21.034053,27.815947,9.6934571,17.236344,13.368916
1569916800,11.28,27.694393,27.578248,21.046973,27.803027,9.6734425,17.245321,13.384
1569917359,11.29554,27.689216,27.572618,21.051312,27.798688,9.6646615,17.248012,13.388662
1569918478,11.326619,27.680975,27.564174,21.059112,27.790888,9.6511685,17.253529,13.397986
1569919597,11.357699,27.673607,27.557321,21.067112,27.782888,9.6396997,17.259046,13.40731
1569920400,11.38,27.668129,27.552117,21.072882,27.777118,9.6310915,17.263005,13.414
1569920721,11.450483,27.658682,27.546495,21.088497,27.761503,9.6190086,17.275445,13.435145
1569921084,11.530175,27.639388,27.529426,21.110383,27.739617,9.5894425,17.289584,13.459052
1569921648,11.653932,27.608587,27.499668,21.142136,27.707864,9.540738,17.311531,13.49618
1569922179,11.770599,27.579616,27.471768,21.17213,27.67787,9.4953361,17.332209,13.53118
1569924000,12.17,27.480447,27.376195,21.274738,27.575262,9.3422073,17.402942,13.651
1569924313,12.278914,27.458914,27.357794,21.30099,27.54901,9.3113491,17.422165,13.683674
1569924723,12.421242,27.423896,27.325147,21.338612,27.511388,9.2591331,17.447334,13.726373
1569925116,12.557659,27.389969,27.292395,21.373626,27.476374,9.2082082,17.471442,13.767298
1569925509,12.694075,27.356127,27.25978,21.408665,27.441335,9.1578544,17.495542,13.808223
1569926423,13.011331,27.277351,27.18388,21.490206,27.359794,9.0422507,17.551534,13.903399
1569927600,13.42,27.175895,27.086105,21.595219,27.254781,8.8965224,17.623563,14.026
1569928145,13.538105,27.140464,27.048354,21.626301,27.223699,8.8439037,17.644408,14.061431
1569928767,13.672978,27.10719,27.016442,21.66097,27.18903,8.7974353,17.668143,14.101893
1569929124,13.750285,27.08797,26.997901,21.680826,27.169174,8.7706945,17.68174,14.125085
1569930240,13.99219,27.027935,26.940045,21.742981,27.107019,8.6879659,17.724271,14.197657
1569931200,14.2,26.976341,26.890328,21.796397,27.053603,8.6178294,17.760772,14.26
1569931534,14.199071,26.966954,26.876833,21.79877,27.05123,8.6020095,17.760692,14.259721
1569931860,14.198166,26.966736,26.875173,21.797121,27.052879,8.6008675,17.760532,14.25945
1569932409,14.196642,26.9672,26.875699,21.79676,27.05324,8.6015958,17.760264,14.258992
1569932836,14.195455,26.967491,26.875956,21.796447,27.053553,8.6020115,17.76005,14.258636
1569934286,14.191425,26.968491,26.876935,21.795413,27.054587,8.6034908,17.759348,14.257428
1569934800,14.19,26.968847,26.877289,21.79505,27.05495,8.6040193,17.759102,14.257
1569935229,14.252101,26.960203,26.872559,21.809755,27.040245,8.594904,17.769943,14.27563
1569935816,14.336829,26.939066,26.852493,21.83199,27.01801,8.5667176,17.784815,14.301049
1569936581,14.447321,26.911664,26.826083,21.860365,26.989635,8.5301701,17.804201,14.334196
1569938400,14.71,26.846458,26.763247,21.927874,26.922126,8.4441539,17.850257,14.413
1569938775,14.859186,26.820759,26.744158,21.963654,26.886346,8.414436,17.876309,14.457756
1569939176,15.018562,26.781411,26.707377,22.00585,26.84415,8.3640671,17.904213,14.505568
1569939788,15.26157,26.721059,26.649112,22.068223,26.781777,8.2866562,17.946726,14.578471
1569940421,15.51308,26.658644,26.588973,22.132878,26.717122,8.2078262,17.990673,14.653924
1569941595,15.97927,26.542942,26.477467,22.252706,26.597294,8.0647639,18.072048,14.793781
1569942000,16.14,26.50305,26.439018,22.294018,26.555982,8.0163425,18.100074,14.842
1569942532,16.233166,26.469522,26.400682,22.319296,26.530704,7.9723308,18.116374,14.86995
1569943106,16.333617,26.444913,26.377109,22.345016,26.504984,7.9430623,18.133869,14.900085
1569944083,16.504615,26.402442,26.336155,22.388961,26.461039,7.8927714,18.163635,14.951384
1569945048,16.673528,26.360517,26.295768,22.432409,26.417591,7.8436545,18.193014,15.002058
1569945600,16.77,26.336568,26.272708,22.457239,26.392761,7.8158235,18.209783,15.031
1569946394,16.89142,26.305369,26.241925,22.488456,26.361544,7.7793598,18.230898,15.067426
1569946897,16.96829,26.286392,26.223763,22.508302,26.341698,7.7576417,18.244253,15.090487
1569948163,17.161659,26.238349,26.177427,22.558006,26.291994,7.7028887,18.277827,15.148498
1569949099,17.304597,26.20292,26.143296,22.594743,26.255257,7.6629327,18.302629,15.191379
1569949475,17.306989,26.194066,26.131607,22.598355,26.251645,7.6510879,18.303112,15.192097
1569949876,17.288055,26.197778,26.132928,22.591536,26.258464,7.6541237,18.299827,15.186416
1569950423,17.262217,26.204282,26.139302,22.584962,26.265038,7.6615244,18.295345,15.178665
1569950886,17.240378,26.209703,26.144509,22.579325,26.270675,7.6676358,18.29156,15.172113
1569952178,17.17934,26.224848,26.159111,22.563647,26.286353,7.6848121,18.280964,15.153802
1569952800,17.15,26.232129,26.166133,22.556111,26.293889,7.693091,18.275871,15.145
1569953187,17.126303,26.237541,26.17114,22.550156,26.299844,7.6991202,18.271765,15.137891
1569953963,17.078909,26.249047,26.182,22.5379,26.3121,7.712101,18.263538,15.123673
1569955127,17.007778,26.266849,26.199237,22.519592,26.330408,7.7324979,18.251186,15.102334
1569956400,16.93,26.28619,26.21792,22.499621,26.350379,7.754728,18.237677,15.079
1569956847,16.934968,26.288307,26.221485,22.49997,26.35003,7.7580999,18.238514,15.08049
1569957406,16.941186,26.286634,26.22046,22.502409,26.347591,7.7565146,18.239595,15.082356
1569957966,16.947404,26.285021,26.218507,22.503557,26.346443,7.7544827,18.240674,15.084221
1569958657,16.955083,26.283209,26.216973,22.505735,26.344265,7.7525715,18.242009,15.086525
1569959348,16.962763,26.281231,26.214969,22.507628,26.342372,7.7502846,18.243342,15.088829
1569960000,16.97,26.279447,26.213243,22.509478,26.340522,7.7482815,18.2446,15.091
1569960798,16.967781,26.279469,26.21302,22.509054,26.340946,7.7482128,18.244219,15.090334
1569962396,16.963344,26.280414,26.213781,22.507855,26.342145,7.7493092,18.243448,15.089003
1569963600,16.96,26.281334,26.214722,22.506988,26.343012,7.7504691,18.242867,15.088
1569963947,16.942633,26.283523,26.215993,22.503274,26.346726,7.7524868,18.239868,15.08279
1569964578,16.911073,26.291315,26.223068,22.494661,26.355339,7.7612424,18.234385,15.073322
1569965304,16.874797,26.300293,26.231764,22.485394,26.364606,7.7716215,18.228082,15.062439
1569965861,16.846911,26.30722,26.238397,22.478181,26.371819,7.7796176,18.223236,15.054073
1569967200,16.78,26.323839,26.254362,22.460923,26.389077,7.7988735,18.211608,15.034
1569967616,16.637545,26.345879,26.268726,22.426974,26.423026,7.8203357,18.186944,14.991264
1569968076,16.480566,26.384818,26.305354,22.385524,26.464476,7.8653782,18.159633,14.94417
1569968781,16.239744,26.444594,26.363043,22.323717,26.526283,7.9360889,18.117704,14.871923
1569969590,15.963296,26.513216,26.429171,22.252668,26.597332,8.018473,18.069517,14.788989
1569970780,15.556665,26.614151,26.526449,22.148152,26.701848,8.142112,17.998556,14.667
1569971395,15.318582,26.671491,26.58086,22.087414,26.762586,8.2135872,17.509059,14.595575
1569972585,14.855746,26.785726,26.690308,21.968221,26.881779,8.3587839,16.537029,14.456724
1569973775,14.39291,26.901085,26.801809,21.849317,27.000683,8.510074,15.575102,14.317873
1569974400,14.15,26.961589,26.860285,21.786946,27.063054,8.5911003,15.074208,14.245
1569974715,14.126374,26.98056,26.884119,21.776736,27.073264,8.620733,15.068643,14.237912
1569975042,14.101821,26.987593,26.893483,21.772773,27.077227,8.6318603,15.064451,14.230546
1569975502,14.067339,26.996009,26.901519,21.76392,27.08608,8.6432663,15.058567,14.220202
1569975874,14.039417,27.002943,26.908206,21.756753,27.093247,8.6527417,15.053733,14.211825
1569976641,13.981922,27.017221,26.921971,21.741974,27.108026,8.6722631,15.043994,14.194577
1569977661,13.905355,27.036226,26.940279,21.722303,27.127697,8.6983683,15.030858,14.171607
1569978000,13.88,27.042518,26.946338,21.71579,27.13421,8.7070401,15.026483,14.164
1569978324,13.8683,27.046673,26.950863,21.712346,27.137654,8.7131463,15.024554,14.16049
1569978972,13.8449,27.053259,26.957863,21.706504,27.143496,8.7227099,15.02056,14.15347
1569979620,13.8215,27.058709,26.962997,21.700637,27.149363,8.7301848,15.016564,14.14645
1569980572,13.787117,27.067401,26.971316,21.691604,27.158396,8.7422392,15.010694,14.136135
1569981524,13.752733,27.075867,26.979566,21.682939,27.167061,8.754089,15.004821,14.12582
1569982058,13.693966,27.087433,26.989291,21.668657,27.181343,8.7691745,14.994814,14.10819
1569982975,13.581897,27.11385,27.01343,21.639389,27.210611,8.8051824,14.975666,14.074569
1569983640,13.500663,27.134802,27.034077,21.618436,27.231564,8.8349298,14.961781,14.050199
1569984466,13.399632,27.159525,27.057894,21.59276,27.25724,8.8698127,14.944506,14.01989
1569985200,13.31,27.181883,27.079338,21.569516,27.280484,8.9015048,14.929175,13.993
1569985554,13.24702,27.195032,27.090922,21.554076,27.295924,8.9194263,14.918417,13.974106
1569986143,13.142243,27.221034,27.115655,21.526777,27.323223,8.9564591,14.900484,13.942673
1569986659,13.05056,27.243788,27.137574,21.50323,27.34677,8.9892246,14.884787,13.915168
1569987175,12.958877,27.266551,27.159511,21.479666,27.370334,9.0221924,14.869082,13.887663
1569988407,12.739854,27.320941,27.211923,21.423391,27.426609,9.1016981,14.831545,13.821956
1569988800,12.67,27.33829,27.22864,21.405447,27.444553,9.127279,14.819567,13.801
1569989167,12.521056,27.364998,27.249363,21.369651,27.480349,9.1629649,14.794096,13.756317
1569989593,12.348052,27.407862,27.289531,21.323894,27.526106,9.2262237,14.764397,13.704416
1569990246,12.083338,27.473627,27.353022,21.256004,27.593996,9.3257784,14.718916,13.625002
1569990933,11.804921,27.542779,27.419641,21.184469,27.665531,9.432092,14.671023,13.541476
1569992058,11.348653,27.656091,27.52886,21.067266,27.782734,9.6102157,14.592444,13.404596
1569992400,11.21,27.690523,27.562056,21.031655,27.818345,9.6653258,14.56854,13.363
1569992804,10.952965,27.743683,27.608539,20.96885,27.88115,9.7473123,14.524257,13.28589
1569993498,10.511231,27.853799,27.713314,20.853464,27.996536,9.9278575,14.447927,13.15337
1569993923,10.240855,27.920774,27.777848,20.784093,28.065907,10.040552,14.40114,13.072257
1569994348,9.9704779,27.987992,27.842507,20.714525,28.135475,10.155516,14.354309,12.991144
1569995407,9.2966293,28.155383,28.003938,20.54157,28.30843,10.450252,14.237376,12.788989
1569996000,8.92,28.248923,28.094189,20.444957,28.405043,10.620271,14.171889,12.676
1569996387,8.8143943,28.291785,28.143743,20.413966,28.436034,10.707441,14.43394,12.644318
1569996798,8.7025075,28.319431,28.171738,20.386982,28.463018,10.76005,14.714182,12.610752
1569997135,8.6110168,28.342116,28.193484,20.363343,28.486657,10.802489,14.944128,12.583305
1569997471,8.5195261,28.364876,28.215421,20.339869,28.510131,10.845453,15.174324,12.555858
1569998553,8.2247636,28.438093,28.286007,20.264182,28.585818,10.985191,15.920571,12.467429
1569999600,7.94,28.508851,28.354166,20.191052,28.658948,11.122566,16.647012,12.382
1570000006,7.9513013,28.519528,28.371589,20.191203,28.658797,11.150721,16.650442,12.38539
1570000415,7.962649,28.516761,28.369889,20.195237,28.654763,11.146186,16.652489,12.388795
1570000920,7.9766843,28.513239,28.36637,20.198729,28.651271,11.13924,16.655017,12.393005
1570001365,7.9890451,28.510177,28.363426,20.201912,28.648088,11.133297,16.657377,12.396714
1570002092,8.0092318,28.505155,28.358583,20.207094,28.642906,11.12357,16.66087,12.40277
1570003200,8.04,28.497508,28.351212,20.214992,28.635008,11.108774,16.666361,12.412
1570003661,8.0913,28.488746,28.344647,20.227097,28.622903,11.093653,16.675656,12.42739
1570004132,8.1436042,28.475551,28.332546,20.24144,28.60856,11.06857,16.685051,12.443081
1570004603,8.1959083,28.46248,28.31954,20.254427,28.595573,11.042892,16.694448,12.458772
1570005204,8.2627657,28.445969,28.303816,20.27176,28.57824,11.011248,16.706453,12.47883
1570005806,8.3296231,28.429294,28.287681,20.288884,28.561116,10.97914,16.718459,12.498887
1570006565,8.4139121,28.408396,28.267549,20.310526,28.539474,10.939206,16.733587,12.524174
1570007142,8.5219081,28.385704,28.247446,20.336869,28.513131,10.897815,16.752919,12.556572
1570007828,8.6857244,28.347446,28.212683,20.379499,28.470501,10.82749,16.782298,12.605717
1570008324,8.8041228,28.316962,28.182938,20.410337,28.439663,10.769894,16.803521,12.641237
1570008939,8.9510899,28.280765,28.147789,20.447503,28.402497,10.702316,16.829851,12.685327
1570009554,9.0980569,28.244211,28.112852,20.485648,28.364352,10.635125,16.856168,12.729417
1570010400,9.3,28.193988,28.064515,20.537642,28.312358,10.543455,16.892305,12.79
1570010940,9.4111248,28.165209,28.036035,20.566273,28.283727,10.490913,16.91219,12.823337
1570012021,9.6333743,28.109553,27.981901,20.623123,28.226877,10.390822,16.951913,12.890012
1570013103,9.8556239,28.054662,27.929264,20.680272,28.169728,10.294108,16.991603,12.956687
1570014000,10.04,28.008878,27.88518,20.72767,28.12233,10.214242,17.024504,13.012
1570014413,10.07906,27.99395,27.86807,20.738754,28.111246,10.185939,17.031511,13.023718
1570014895,10.124596,27.982724,27.856909,20.749984,28.100016,10.166348,17.039632,13.037379
1570015246,10.157706,27.974503,27.848979,20.758501,28.091499,10.152203,17.045538,13.047312
1570015596,10.190815,27.966268,27.841053,20.76701,28.08299,10.138075,17.05144,13.057245
1570016376,10.264486,27.947981,27.823417,20.785922,28.064078,10.106769,17.064574,13.079346
1570017600,10.38,27.919318,27.795766,20.815574,28.034426,10.05797,17.085163,13.114
1570018680,10.512,27.887629,27.765854,20.849279,28.000721,10.005154,17.108658,13.1536
1570020840,10.776,27.822309,27.703164,20.917205,27.932795,9.8962543,17.155645,13.2328
1570021200,10.82,27.811225,27.692416,20.928567,27.921433,9.8778238,17.163474,13.246
1570021548,10.978986,27.786476,27.675541,20.965511,27.884489,9.8430225,17.191615,13.293696
1570021853,11.117628,27.752563,27.64478,21.003043,27.846957,9.7887896,17.216254,13.335288
1570022362,11.3496,27.694835,27.589049,21.062617,27.787383,9.6950174,17.257449,13.40488
1570022860,11.576539,27.638495,27.534785,21.120925,27.729075,9.604856,17.297725,13.472962
1570024259,12.213714,27.480294,27.382313,21.284638,27.565362,9.3580568,17.410586,13.664114
1570024800,12.46,27.419145,27.32337,21.347919,27.502081,9.2651498,17.454136,13.738
1570025171,12.477538,27.39658,27.292597,21.356679,27.493321,9.2241781,17.457398,13.743261
1570025703,12.502645,27.39004,27.284436,21.361128,27.488872,9.2132213,17.461824,13.750793
1570026325,12.532021,27.382752,27.277464,21.368731,27.481269,9.2024081,17.467016,13.759606
1570027234,12.574968,27.372087,27.267202,21.379759,27.470241,9.1865831,17.474614,13.77249
1570028144,12.617914,27.361427,27.256915,21.390799,27.459201,9.1707921,17.482192,13.785374
1570028472,12.640108,27.35744,27.2532,21.395255,27.454745,9.1650161,17.486083,13.792032
1570028851,12.692671,27.347187,27.245554,21.40926,27.44074,9.1515352,17.495367,13.807801
1570029413,12.770755,27.327612,27.226754,21.429556,27.420444,9.1226744,17.509155,13.831226
1570029773,12.820793,27.315215,27.214825,21.442401,27.407599,9.1044573,17.517991,13.846238
1570030345,12.900272,27.295478,27.195803,21.462838,27.387162,9.0755698,17.532015,13.870082
1570031384,13.044506,27.259667,27.161297,21.49989,27.35011,9.0234871,17.557463,13.913352
1570032000,13.13,27.238443,27.140848,21.521846,27.328154,8.9928254,17.572541,13.939
1570032813,13.13,27.231273,27.129926,21.522961,27.327039,8.9796108,17.572588,13.939
1570033356,13.13,27.2324,27.131142,21.5222,27.3278,8.9814274,17.572587,13.939
1570033898,13.13,27.232106,27.131258,21.522938,27.327062,8.9812948,17.572588,13.939
1570034441,13.13,27.232105,27.130907,21.522493,27.327507,8.9810963,17.572587,13.939
